537.740 1639.254
538.018 1705.635
538.296 1723.042
538.573 1678.553
538.851 1561.531
539.129 1394.219
539.406 1174.682
539.684 1033.481
539.962 856.498
540.239 715.297
540.517 561.524
540.795 547.017
541.072 546.048
541.350 485.119
541.627 450.302
541.905 416.451
542.183 548.945
542.460 424.186
542.738 423.218
543.016 470.606
543.293 628.245
543.571 804.259
543.849 1183.368
544.126 1857.448
544.404 2768.472
544.682 3868.084
544.959 4707.542
545.237 4720.113
545.515 4201.737
545.792 3299.415
546.070 2432.876
546.356 1713.339
546.642 1164.015
546.928 913.530
547.214 656.276
547.500 522.812
547.786 433.836
548.072 361.301
548.358 317.780
548.644 392.247
548.930 321.646
549.216 310.039
549.502 322.611
549.788 375.801
550.074 456.071
550.360 548.913
550.646 762.645
550.932 1037.305
551.218 1181.405
551.504 1266.510
551.790 1165.929
552.076 958.924
552.362 840.821
552.648 614.295
552.934 527.169
553.220 407.129
553.506 353.885
553.793 322.906
554.079 242.791
554.365 196.279
554.651 231.161
554.937 227.284
555.223 199.375
555.509 251.750
555.795 289.577
556.081 340.012
556.367 460.729
556.653 736.456
556.939 1110.241
557.225 1727.451
557.511 2235.711
557.797 2660.063
558.083 2571.541
558.369 2210.645
558.655 1671.733
558.941 1213.768
559.227 873.942
559.513 569.170
559.799 487.377
560.085 383.563
560.371 353.347
560.657 270.500
560.943 248.323
561.229 236.615
561.515 228.809
561.801 260.281
562.087 239.772
562.373 174.512
562.659 226.319
562.945 391.518
563.231 541.606
563.517 772.525
563.803 1131.752
564.089 1414.807
564.375 1560.310
564.661 1535.344
564.947 1351.829
565.233 998.539
565.519 734.294
565.805 524.592
566.091 392.831
566.377 321.366
566.663 264.278
566.949 145.326
567.235 218.231
567.521 149.411
567.807 186.885
568.093 182.133
568.379 170.454
568.665 165.512
568.951 170.620
569.237 220.074
569.524 348.014
569.810 442.072
570.096 662.529
570.382 946.967
570.668 1251.228
570.954 1417.150
571.240 1340.760
571.526 1187.981
571.812 954.800
572.098 669.794
572.384 496.009
572.670 404.056
572.956 287.752
573.242 261.906
573.528 211.209
573.814 182.380
574.100 174.427
574.386 228.103
574.672 261.899
574.958 183.369
575.244 194.302
575.530 141.617
575.816 232.073
576.102 244.000
576.388 395.693
576.674 569.475
576.960 862.560
577.250 1244.503
577.540 1496.985
577.831 1644.016
578.121 1586.589
578.411 1383.238
578.701 1082.463
578.992 746.743
579.282 614.842
579.572 467.437
579.862 334.101
580.153 267.628
580.443 200.632
580.733 222.983
581.023 225.702
581.314 203.754
581.604 199.647
581.894 178.789
582.184 154.271
582.475 182.152
582.765 213.042
583.055 190.341
583.345 240.494
583.636 324.086
583.926 446.893
584.216 508.118
584.506 660.986
584.797 615.201
585.087 627.443
585.377 512.856
585.667 348.394
585.958 269.741
586.248 206.308
586.538 216.586
586.828 221.136
587.119 179.879
587.409 166.425
587.699 170.057
587.989 126.334
588.279 54.312
588.570 117.586
588.860 212.847
589.150 152.411
589.440 215.474
589.731 170.029
590.021 203.015
590.311 329.000
590.601 455.175
590.892 678.338
591.182 1070.925
591.472 1433.106
591.762 1633.481
592.053 1546.419
592.343 1371.605
592.633 1061.453
592.923 780.437
593.214 603.177
593.504 452.941
593.794 346.836
594.084 276.413
594.375 251.059
594.665 186.269
594.955 163.732
595.245 145.891
595.536 163.730
595.826 107.390
596.116 72.647
596.406 87.669
596.697 137.563
596.987 82.110
597.277 129.101
597.567 174.213
597.857 195.071
598.148 192.248
598.438 247.983
598.728 255.514
599.018 251.041
599.309 242.557
599.599 205.049
599.889 187.300
600.179 138.196
600.470 170.461
600.760 146.023
601.050 140.478
601.340 168.886
601.631 93.215
601.921 62.941
602.211 124.728
602.501 157.016
602.792 97.277
603.082 41.232
603.372 130.793
603.662 73.719
603.953 167.300
604.243 101.555
604.533 111.211
604.823 182.130
605.114 422.724
605.404 715.554
605.694 1015.648
605.984 1340.998
606.275 1507.510
606.565 1502.227
606.855 1277.226
607.145 926.192
607.435 740.185
607.726 606.857
608.016 396.051
608.306 356.474
608.596 237.010
608.887 161.803
609.177 97.972
609.467 115.490
609.757 100.097
610.048 101.064
610.338 114.740
610.628 97.280
610.918 87.664
611.209 89.604
611.499 120.788
611.789 149.941
612.079 146.194
612.370 174.403
612.660 99.595
612.950 37.276
613.240 59.728
613.531 143.547
613.821 96.762
614.111 40.231
614.401 57.829
614.692 91.974
614.982 97.826
615.272 113.435
615.562 129.043
615.853 82.212
616.143 44.162
616.433 124.160
616.723 78.305
617.014 135.864
617.304 95.863
617.594 34.398
617.884 73.421
618.174 88.053
618.465 98.687
618.755 92.838
619.045 100.633
619.335 157.162
619.626 222.246
619.916 249.508
620.206 502.182
620.496 716.189
620.787 972.996
621.077 1093.526
621.367 1225.692
621.657 1139.063
621.948 964.305
622.238 685.662
622.528 551.145
622.818 408.168
623.109 329.678
623.399 248.040
623.689 183.179
623.979 108.532
624.270 98.764
624.560 109.390
624.850 63.917
625.140 109.282
625.431 79.281
625.721 43.599
626.011 85.945
626.301 55.115
626.592 66.610
626.882 58.852
627.172 91.543
627.462 128.079
627.752 132.758
628.043 165.417
628.333 102.976
628.623 123.029
628.913 143.181
629.204 104.791
629.494 75.039
629.784 101.811
630.074 112.356
630.365 102.767
630.655 59.621
630.945 102.764
631.235 121.938
631.526 83.585
631.816 79.748
632.106 84.541
632.396 61.528
632.687 48.104
632.977 74.948
633.267 85.493
633.557 89.412
633.848 134.516
634.138 87.489
634.428 150.012
634.718 117.349
635.009 178.037
635.299 267.716
635.589 382.248
635.879 587.817
636.170 721.458
636.460 863.079
636.750 875.506
637.040 846.370
637.330 663.900
637.621 475.867
637.911 318.894
638.201 201.694
638.491 265.500
638.782 221.813
639.072 124.398
639.362 84.361
639.652 64.834
639.943 45.269
640.233 125.862
640.523 112.218
640.813 66.067
641.104 56.278
641.394 49.428
641.684 35.620
641.974 76.962
642.265 41.452
642.555 53.209
642.845 95.301
643.135 50.059
643.426 110.565
643.716 180.591
644.006 195.817
644.296 244.026
644.587 301.454
644.877 202.223
645.167 241.174
645.457 248.169
645.748 135.277
646.038 97.509
646.328 66.752
646.618 49.466
646.909 98.567
647.199 137.131
647.489 54.795
647.779 51.865
648.069 113.903
648.360 36.692
648.650 43.223
648.940 45.055
649.230 14.112
649.521 -23.321
649.811 -11.162
650.101 86.124
650.391 35.641
650.682 76.910
650.972 114.503
651.262 298.647
651.552 307.673
651.843 370.457
652.133 529.295
652.423 532.185
652.713 508.570
653.004 468.231
653.294 365.410
653.584 319.698
653.874 303.099
654.165 264.660
654.455 189.460
654.745 105.045
655.035 91.821
655.326 143.442
655.616 51.536
655.906 92.530
656.196 115.261
656.486 125.269
656.777 48.109
657.067 79.667
657.357 95.680
657.647 27.685
657.938 39.658
658.228 52.645
658.518 93.544
658.808 112.672
659.099 131.876
659.389 178.362
659.679 195.591
659.969 209.047
660.260 315.206
660.550 377.394
660.840 328.279
661.130 202.423
661.421 157.193
661.711 245.925
662.001 197.544
662.291 147.794
662.582 161.373
662.872 73.602
663.162 67.534
663.452 56.388
663.743 146.793
664.033 65.750
664.323 124.457
664.613 116.464
664.904 61.887
665.194 110.503
665.484 105.444
665.774 44.475
666.065 45.555
666.355 27.965
666.645 40.453
666.935 64.402
667.225 106.090
667.516 125.990
667.806 129.248
668.096 172.178
668.386 273.714
668.677 229.019
668.967 337.804
669.257 342.344
669.547 235.782
669.838 139.490
670.128 97.618
670.418 94.564
670.708 111.503
670.999 110.565
671.289 177.135
671.579 145.641
671.869 46.427
672.160 80.336
672.450 40.165
672.740 -23.421
673.030 14.768
673.321 12.656
673.611 77.561
673.901 95.746
674.191 79.854
674.482 43.651
674.772 26.602
675.062 35.147
675.352 19.139
675.643 40.571
675.933 90.987
676.223 153.314
676.513 282.370
676.803 335.360
677.094 357.938
677.384 400.302
677.674 366.248
677.964 301.591
678.255 242.582
678.545 126.211
678.835 115.410
679.125 162.019
679.416 144.876
679.706 106.995
679.996 116.859
680.286 147.193
680.577 197.242
680.867 69.257
681.157 51.957
681.447 73.750
681.738 37.879
682.028 62.876
682.318 69.471
682.608 110.939
682.899 144.705
683.189 177.576
683.479 136.134
683.769 116.503
684.060 79.423
684.350 126.450
684.640 27.103
684.930 76.227
685.221 154.828
685.511 167.926
685.801 118.797
686.091 146.087
686.381 89.316
686.672 70.754
686.962 71.844
687.252 24.898
687.542 29.262
687.833 47.819
688.123 23.799
688.413 64.190
688.703 99.122
688.994 -10.040
689.284 67.384
689.574 117.545
689.864 114.271
690.155 20.462
690.445 40.067
690.735 -11.121
691.025 10.628
691.316 37.758
691.606 60.491
691.896 102.677
692.186 118.797
692.477 104.499
692.767 144.142
693.057 141.831
693.347 199.526
693.638 240.639
693.928 396.105
694.218 528.521
694.508 472.635
694.799 407.572
695.089 334.826
695.379 276.863
695.669 253.663
695.960 234.036
696.250 111.299
696.540 180.409
696.835 144.649
697.130 52.298
697.425 53.107
697.720 77.428
698.015 104.605
698.310 62.596
698.605 -2.306
698.900 -53.607
699.195 23.760
699.490 68.573
699.785 59.352
700.080 47.233
700.375 82.547
700.670 38.016
700.965 52.542
701.260 0.679
701.555 22.054
701.850 26.832
702.145 83.676
702.440 121.931
702.735 53.439
703.030 83.906
703.324 25.481
703.619 57.787
703.914 43.417
704.209 24.357
704.504 12.945
704.799 67.738
705.094 82.780
705.389 78.927
705.684 77.834
705.979 2.502
706.274 62.704
706.569 50.425
706.864 102.958
707.159 58.824
707.454 -0.333
707.749 -11.592
708.044 17.486
708.339 26.864
708.634 34.335
708.929 49.328
709.224 9.972
709.519 81.264
709.814 24.016
710.109 83.995
710.404 91.576
710.699 57.803
710.994 88.757
711.289 150.668
711.584 254.794
711.879 348.927
712.174 413.714
712.469 421.619
712.764 404.699
713.059 305.073
713.354 223.513
713.649 140.859
713.944 179.463
714.239 173.975
714.534 116.589
714.829 88.368
715.124 80.812
715.419 152.719
715.714 80.960
716.009 18.534
716.304 61.203
